Output output/Halemaumau_run005.txt from Eject, Python version, run on 2020-01-07-1130


Block parameters:
                       Block diameter, m:   0.24
                    Block density, kg/m3:   2500
                             Block shape:  sphere
                   Initial velocity, m/s:   68.8
 Ejection angle from horizontal, degrees:   21.8
      Ejection direction, degrees E of N:  296.9
                         Wind speed, m/s:    0.0
             Wind direction, deg. E of N:    0.0
landing point meters below takeoff point:      0
     extent of reduced drag zone, meters:    0.0

Meteorologic conditions:
            Temperature at sea level, Celsius:  25.0
            Thermal lapse rate, deg. C per km:  6.50
Elevation of takeoff point above sea level, m:  1000

TRAJECTORY CALCULATIONS
###################################################################################################################################
    i   t (s)     x (m)     y (m)     z (m)   vx(m/s)  vy (m/s)  vz (m/s)   Mach #     Reynolds #     Cd   Temp (K) rho_air (kg/m3)
    0   0.000     0.000     0.000     0.000   -56.966    28.844    25.505    0.200     997515.740  0.110     291.65      1.078
    1   0.010    -0.593     0.300     0.265   -56.960    28.841    25.401    0.200     996843.501  0.110     291.65      1.078
    2   0.021    -1.185     0.600     0.529   -56.954    28.838    25.296    0.200     996173.434  0.110     291.65      1.078
    3   0.031    -1.778     0.900     0.791   -56.948    28.835    25.191    0.200     995505.541  0.110     291.64      1.078
    4   0.042    -2.370     1.200     1.053   -56.942    28.832    25.087    0.200     994839.826  0.110     291.64      1.078
    5   0.052    -2.962     1.500     1.314   -56.936    28.829    24.982    0.199     994176.290  0.110     291.64      1.078
    6   0.062    -3.555     1.800     1.573   -56.930    28.826    24.878    0.199     993514.936  0.110     291.64      1.078
    7   0.073    -4.147     2.100     1.831   -56.924    28.823    24.773    0.199     992855.766  0.110     291.64      1.078
    8   0.083    -4.739     2.400     2.089   -56.918    28.820    24.669    0.199     992198.782  0.110     291.64      1.078
    9   0.094    -5.331     2.699     2.345   -56.912    28.817    24.564    0.199     991543.987  0.110     291.63      1.078
   10   0.104    -5.923     2.999     2.600   -56.906    28.814    24.460    0.199     990891.383  0.110     291.63      1.078
   11   0.114    -6.515     3.299     2.854   -56.901    28.811    24.355    0.199     990240.972  0.110     291.63      1.078
   12   0.125    -7.107     3.599     3.107   -56.895    28.808    24.251    0.199     989592.757  0.110     291.63      1.078
   13   0.135    -7.699     3.898     3.359   -56.889    28.805    24.146    0.198     988946.740  0.110     291.63      1.078
   14   0.146    -8.291     4.198     3.609   -56.883    28.802    24.042    0.198     988302.923  0.109     291.63      1.078
   15   0.156    -8.883     4.498     3.859   -56.877    28.799    23.937    0.198     987661.309  0.109     291.62      1.078
   16   0.166    -9.474     4.797     4.108   -56.871    28.796    23.833    0.198     987021.899  0.109     291.62      1.078
   17   0.177   -10.066     5.097     4.355   -56.865    28.793    23.728    0.198     986384.697  0.109     291.62      1.078
   18   0.187   -10.657     5.396     4.602   -56.860    28.790    23.624    0.198     985749.704  0.109     291.62      1.078
   19   0.198   -11.249     5.696     4.847   -56.854    28.787    23.520    0.198     985116.923  0.109     291.62      1.078
   20   0.208   -11.840     5.995     5.091   -56.848    28.785    23.415    0.198     984486.356  0.109     291.62      1.078
   21   0.218   -12.432     6.295     5.334   -56.842    28.782    23.311    0.197     983858.006  0.109     291.62      1.078
   22   0.229   -13.023     6.594     5.576   -56.836    28.779    23.206    0.197     983231.874  0.109     291.61      1.078
   23   0.239   -13.614     6.894     5.817   -56.831    28.776    23.102    0.197     982607.963  0.109     291.61      1.078
   24   0.250   -14.206     7.193     6.057   -56.825    28.773    22.998    0.197     981986.275  0.109     291.61      1.078
   25   0.260   -14.797     7.492     6.296   -56.819    28.770    22.893    0.197     981366.813  0.109     291.61      1.078
   26   0.270   -15.388     7.791     6.534   -56.813    28.767    22.789    0.197     980749.579  0.109     291.61      1.078
   27   0.281   -15.979     8.091     6.770   -56.807    28.764    22.685    0.197     980134.574  0.109     291.61      1.078
   28   0.291   -16.570     8.390     7.006   -56.802    28.761    22.581    0.197     979521.802  0.109     291.60      1.078
   29   0.302   -17.161     8.689     7.240   -56.796    28.758    22.476    0.197     978911.265  0.109     291.60      1.078
   30   0.312   -17.751     8.988     7.474   -56.790    28.755    22.372    0.196     978302.964  0.109     291.60      1.078
   31   0.323   -18.342     9.287     7.706   -56.784    28.752    22.268    0.196     977696.903  0.109     291.60      1.078
   32   0.333   -18.933     9.587     7.937   -56.779    28.749    22.164    0.196     977093.083  0.109     291.60      1.078
   33   0.343   -19.524     9.886     8.167   -56.773    28.746    22.059    0.196     976491.506  0.109     291.60      1.077
   34   0.354   -20.114    10.185     8.396   -56.767    28.744    21.955    0.196     975892.176  0.109     291.60      1.077
   35   0.364   -20.705    10.484     8.624   -56.761    28.741    21.851    0.196     975295.093  0.109     291.59      1.077
   36   0.375   -21.295    10.783     8.851   -56.756    28.738    21.747    0.196     974700.261  0.109     291.59      1.077
   37   0.385   -21.886    11.082     9.077   -56.750    28.735    21.643    0.196     974107.681  0.109     291.59      1.077
   38   0.395   -22.476    11.381     9.302   -56.744    28.732    21.539    0.195     973517.357  0.109     291.59      1.077
   39   0.406   -23.066    11.679     9.525   -56.738    28.729    21.434    0.195     972929.289  0.109     291.59      1.077
   40   0.416   -23.657    11.978     9.748   -56.733    28.726    21.330    0.195     972343.481  0.109     291.59      1.077
   41   0.427   -24.247    12.277     9.969   -56.727    28.723    21.226    0.195     971759.934  0.109     291.59      1.077
   42   0.437   -24.837    12.576    10.190   -56.721    28.720    21.122    0.195     971178.651  0.109     291.58      1.077
   43   0.447   -25.427    12.875    10.409   -56.716    28.717    21.018    0.195     970599.634  0.109     291.58      1.077
   44   0.458   -26.017    13.173    10.627   -56.710    28.715    20.914    0.195     970022.885  0.109     291.58      1.077
   45   0.468   -26.607    13.472    10.844   -56.704    28.712    20.810    0.195     969448.406  0.109     291.58      1.077
   46   0.479   -27.197    13.771    11.060   -56.699    28.709    20.706    0.195     968876.200  0.109     291.58      1.077
   47   0.489   -27.787    14.070    11.275   -56.693    28.706    20.602    0.194     968306.269  0.109     291.58      1.077
   48   0.499   -28.376    14.368    11.489   -56.687    28.703    20.498    0.194     967738.614  0.109     291.58      1.077
   49   0.510   -28.966    14.667    11.702   -56.682    28.700    20.394    0.194     967173.239  0.109     291.57      1.077
   50   0.520   -29.556    14.965    11.914   -56.676    28.697    20.290    0.194     966610.145  0.109     291.57      1.077
   51   0.531   -30.145    15.264    12.124   -56.670    28.695    20.186    0.194     966049.334  0.108     291.57      1.077
   52   0.541   -30.735    15.562    12.334   -56.665    28.692    20.082    0.194     965490.809  0.108     291.57      1.077
   53   0.551   -31.324    15.861    12.542   -56.659    28.689    19.978    0.194     964934.572  0.108     291.57      1.077
   54   0.562   -31.914    16.159    12.750   -56.653    28.686    19.874    0.194     964380.624  0.108     291.57      1.077
   55   0.572   -32.503    16.458    12.956   -56.648    28.683    19.770    0.194     963828.969  0.108     291.57      1.077
   56   0.583   -33.092    16.756    13.161   -56.642    28.680    19.666    0.194     963279.608  0.108     291.56      1.077
   57   0.593   -33.682    17.054    13.365   -56.636    28.677    19.562    0.193     962732.544  0.108     291.56      1.077
   58   0.603   -34.271    17.353    13.568   -56.631    28.675    19.458    0.193     962187.777  0.108     291.56      1.077
   59   0.614   -34.860    17.651    13.770   -56.625    28.672    19.354    0.193     961645.312  0.108     291.56      1.077
   60   0.624   -35.449    17.949    13.971   -56.620    28.669    19.250    0.193     961105.149  0.108     291.56      1.077
   61   0.635   -36.038    18.248    14.171   -56.614    28.666    19.146    0.193     960567.291  0.108     291.56      1.077
   62   0.645   -36.627    18.546    14.370   -56.608    28.663    19.042    0.193     960031.740  0.108     291.56      1.077
   63   0.655   -37.216    18.844    14.567   -56.603    28.660    18.939    0.193     959498.498  0.108     291.56      1.077
   64   0.666   -37.805    19.142    14.764   -56.597    28.658    18.835    0.193     958967.568  0.108     291.55      1.077
   65   0.676   -38.393    19.440    14.959   -56.592    28.655    18.731    0.193     958438.950  0.108     291.55      1.077
   66   0.687   -38.982    19.738    15.154   -56.586    28.652    18.627    0.192     957912.648  0.108     291.55      1.077
   67   0.697   -39.571    20.036    15.347   -56.580    28.649    18.523    0.192     957388.663  0.108     291.55      1.077
   68   0.707   -40.159    20.334    15.539   -56.575    28.646    18.419    0.192     956866.998  0.108     291.55      1.077
   69   0.718   -40.748    20.632    15.731   -56.569    28.643    18.316    0.192     956347.654  0.108     291.55      1.077
   70   0.728   -41.336    20.930    15.921   -56.564    28.641    18.212    0.192     955830.634  0.108     291.55      1.077
   71   0.739   -41.925    21.228    16.110   -56.558    28.638    18.108    0.192     955315.940  0.108     291.55      1.077
   72   0.749   -42.513    21.526    16.298   -56.553    28.635    18.004    0.192     954803.573  0.108     291.54      1.077
   73   0.759   -43.102    21.824    16.485   -56.547    28.632    17.901    0.192     954293.536  0.108     291.54      1.077
   74   0.770   -43.690    22.122    16.670   -56.542    28.629    17.797    0.192     953785.831  0.108     291.54      1.077
   75   0.780   -44.278    22.420    16.855   -56.536    28.627    17.693    0.192     953280.460  0.108     291.54      1.077
   76   0.791   -44.866    22.718    17.039   -56.531    28.624    17.590    0.191     952777.424  0.108     291.54      1.077
   77   0.801   -45.454    23.015    17.221   -56.525    28.621    17.486    0.191     952276.726  0.108     291.54      1.077
   78   0.811   -46.042    23.313    17.403   -56.519    28.618    17.382    0.191     951778.368  0.108     291.54      1.077
   79   0.822   -46.630    23.611    17.583   -56.514    28.615    17.278    0.191     951282.352  0.108     291.54      1.077
   80   0.832   -47.218    23.909    17.762   -56.508    28.613    17.175    0.191     950788.680  0.108     291.53      1.076
   81   0.843   -47.806    24.206    17.941   -56.503    28.610    17.071    0.191     950297.353  0.108     291.53      1.076
   82   0.853   -48.394    24.504    18.118   -56.497    28.607    16.968    0.191     949808.374  0.108     291.53      1.076
   83   0.863   -48.981    24.801    18.294   -56.492    28.604    16.864    0.191     949321.745  0.108     291.53      1.076
   84   0.874   -49.569    25.099    18.469   -56.486    28.601    16.760    0.191     948837.467  0.108     291.53      1.076
   85   0.884   -50.157    25.396    18.643   -56.481    28.599    16.657    0.191     948355.543  0.108     291.53      1.076
   86   0.895   -50.744    25.694    18.815   -56.475    28.596    16.553    0.191     947875.975  0.108     291.53      1.076
   87   0.905   -51.332    25.991    18.987   -56.470    28.593    16.450    0.190     947398.763  0.108     291.53      1.076
   88   0.915   -51.919    26.289    19.158   -56.465    28.590    16.346    0.190     946923.912  0.108     291.53      1.076
   89   0.926   -52.507    26.586    19.328   -56.459    28.588    16.242    0.190     946451.421  0.108     291.52      1.076
   90   0.936   -53.094    26.884    19.496   -56.454    28.585    16.139    0.190     945981.294  0.108     291.52      1.076
   91   0.947   -53.681    27.181    19.663   -56.448    28.582    16.035    0.190     945513.532  0.108     291.52      1.076
   92   0.957   -54.269    27.478    19.830   -56.443    28.579    15.932    0.190     945048.136  0.108     291.52      1.076
   93   0.968   -54.856    27.776    19.995   -56.437    28.577    15.828    0.190     944585.110  0.108     291.52      1.076
   94   0.978   -55.443    28.073    20.159   -56.432    28.574    15.725    0.190     944124.454  0.108     291.52      1.076
   95   0.988   -56.030    28.370    20.323   -56.426    28.571    15.621    0.190     943666.171  0.107     291.52      1.076
   96   0.999   -56.617    28.667    20.485   -56.421    28.568    15.518    0.190     943210.262  0.107     291.52      1.076
   97   1.009   -57.204    28.965    20.646   -56.415    28.566    15.414    0.190     942756.730  0.107     291.52      1.076
   98   1.020   -57.791    29.262    20.805   -56.410    28.563    15.311    0.189     942305.575  0.107     291.51      1.076
   99   1.030   -58.377    29.559    20.964   -56.405    28.560    15.207    0.189     941856.801  0.107     291.51      1.076
  100   1.040   -58.964    29.856    21.122   -56.399    28.557    15.104    0.189     941410.408  0.107     291.51      1.076
  101   1.051   -59.551    30.153    21.279   -56.394    28.555    15.001    0.189     940966.398  0.107     291.51      1.076
  102   1.061   -60.138    30.450    21.434   -56.388    28.552    14.897    0.189     940524.774  0.107     291.51      1.076
  103   1.072   -60.724    30.747    21.589   -56.383    28.549    14.794    0.189     940085.537  0.107     291.51      1.076
  104   1.082   -61.311    31.044    21.742   -56.378    28.546    14.690    0.189     939648.689  0.107     291.51      1.076
  105   1.092   -61.897    31.341    21.895   -56.372    28.544    14.587    0.189     939214.232  0.107     291.51      1.076
  106   1.103   -62.484    31.638    22.046   -56.367    28.541    14.484    0.189     938782.167  0.107     291.51      1.076
  107   1.113   -63.070    31.935    22.196   -56.361    28.538    14.380    0.189     938352.496  0.107     291.51      1.076
  108   1.124   -63.656    32.232    22.345   -56.356    28.535    14.277    0.189     937925.221  0.107     291.50      1.076
  109   1.134   -64.243    32.529    22.494   -56.351    28.533    14.174    0.188     937500.343  0.107     291.50      1.076
  110   1.144   -64.829    32.826    22.641   -56.345    28.530    14.070    0.188     937077.865  0.107     291.50      1.076
  111   1.155   -65.415    33.122    22.786   -56.340    28.527    13.967    0.188     936657.787  0.107     291.50      1.076
  112   1.165   -66.001    33.419    22.931   -56.334    28.524    13.864    0.188     936240.113  0.107     291.50      1.076
  113   1.176   -66.587    33.716    23.075   -56.329    28.522    13.760    0.188     935824.843  0.107     291.50      1.076
  114   1.186   -67.173    34.013    23.218   -56.324    28.519    13.657    0.188     935411.979  0.107     291.50      1.076
  115   1.196   -67.759    34.309    23.359   -56.318    28.516    13.554    0.188     935001.522  0.107     291.50      1.076
  116   1.207   -68.345    34.606    23.500   -56.313    28.514    13.451    0.188     934593.475  0.107     291.50      1.076
  117   1.217   -68.931    34.903    23.639   -56.308    28.511    13.347    0.188     934187.839  0.107     291.50      1.076
  118   1.228   -69.516    35.199    23.778   -56.302    28.508    13.244    0.188     933784.616  0.107     291.50      1.076
  119   1.238   -70.102    35.496    23.915   -56.297    28.505    13.141    0.188     933383.806  0.107     291.49      1.076
  120   1.248   -70.688    35.792    24.051   -56.292    28.503    13.038    0.188     932985.413  0.107     291.49      1.076
  121   1.259   -71.273    36.089    24.187   -56.286    28.500    12.934    0.188     932589.437  0.107     291.49      1.076
  122   1.269   -71.859    36.385    24.321   -56.281    28.497    12.831    0.187     932195.880  0.107     291.49      1.076
  123   1.280   -72.444    36.682    24.454   -56.276    28.495    12.728    0.187     931804.744  0.107     291.49      1.076
  124   1.290   -73.030    36.978    24.586   -56.270    28.492    12.625    0.187     931416.030  0.107     291.49      1.076
  125   1.300   -73.615    37.275    24.717   -56.265    28.489    12.522    0.187     931029.739  0.107     291.49      1.076
  126   1.311   -74.201    37.571    24.846   -56.260    28.487    12.418    0.187     930645.874  0.107     291.49      1.076
  127   1.321   -74.786    37.867    24.975   -56.254    28.484    12.315    0.187     930264.436  0.107     291.49      1.076
  128   1.332   -75.371    38.164    25.103   -56.249    28.481    12.212    0.187     929885.426  0.107     291.49      1.076
  129   1.342   -75.956    38.460    25.229   -56.244    28.478    12.109    0.187     929508.846  0.107     291.49      1.076
  130   1.352   -76.541    38.756    25.355   -56.238    28.476    12.006    0.187     929134.697  0.107     291.49      1.076
  131   1.363   -77.126    39.052    25.479   -56.233    28.473    11.903    0.187     928762.981  0.107     291.48      1.076
  132   1.373   -77.711    39.349    25.603   -56.228    28.470    11.800    0.187     928393.699  0.107     291.48      1.076
  133   1.384   -78.296    39.645    25.725   -56.222    28.468    11.697    0.187     928026.852  0.107     291.48      1.076
  134   1.394   -78.881    39.941    25.846   -56.217    28.465    11.594    0.187     927662.443  0.107     291.48      1.076
  135   1.404   -79.466    40.237    25.967   -56.212    28.462    11.490    0.186     927300.473  0.107     291.48      1.076
  136   1.415   -80.051    40.533    26.086   -56.206    28.460    11.387    0.186     926940.942  0.107     291.48      1.076
  137   1.425   -80.635    40.829    26.204   -56.201    28.457    11.284    0.186     926583.853  0.107     291.48      1.076
  138   1.436   -81.220    41.125    26.321   -56.196    28.454    11.181    0.186     926229.207  0.107     291.48      1.076
  139   1.446   -81.805    41.421    26.436   -56.191    28.452    11.078    0.186     925877.005  0.107     291.48      1.076
  140   1.456   -82.389    41.717    26.551   -56.185    28.449    10.975    0.186     925527.248  0.107     291.48      1.076
  141   1.467   -82.974    42.013    26.665   -56.180    28.446    10.872    0.186     925179.939  0.107     291.48      1.076
  142   1.477   -83.558    42.309    26.778   -56.175    28.444    10.769    0.186     924835.077  0.107     291.48      1.076
  143   1.488   -84.143    42.605    26.889   -56.170    28.441    10.666    0.186     924492.665  0.107     291.48      1.076
  144   1.498   -84.727    42.901    27.000   -56.164    28.438    10.563    0.186     924152.704  0.107     291.47      1.076
  145   1.508   -85.311    43.197    27.109   -56.159    28.436    10.460    0.186     923815.196  0.107     291.47      1.076
  146   1.519   -85.895    43.492    27.218   -56.154    28.433    10.357    0.186     923480.140  0.107     291.47      1.076
